#    s        x        y     Ue/Vinf    Dstar     Theta      Cf       H       H*        P         m          K          tau         Di
   0.00000  1.00000  0.00000  0.89632  0.015208  0.007204  0.000539    2.1111    1.5604  0.00579  0.01363  0.00809
   0.05873  0.94337  0.01556  0.95911  0.009662  0.005494  0.001218    1.7587    1.6326  0.00505  0.00927  0.00791
   0.11434  0.88969  0.03010  1.00409  0.007607  0.004598  0.001658    1.6547    1.6628  0.00464  0.00764  0.00774
   0.16693  0.83888  0.04365  1.04172  0.006369  0.003980  0.002018    1.6002    1.6806  0.00432  0.00663  0.00756
   0.21660  0.79084  0.05625  1.07347  0.005541  0.003528  0.002311    1.5705    1.6912  0.00407  0.00595  0.00738
   0.26344  0.74548  0.06794  1.10187  0.004920  0.003169  0.002566    1.5525    1.6979  0.00385  0.00542  0.00720
   0.30756  0.70270  0.07875  1.12810  0.004422  0.002870  0.002799    1.5410    1.7025  0.00365  0.00499  0.00701
   0.34904  0.66243  0.08870  1.15294  0.004006  0.002612  0.003020    1.5335    1.7057  0.00347  0.00462  0.00683
   0.38799  0.62457  0.09785  1.17685  0.003647  0.002386  0.003235    1.5283    1.7081  0.00331  0.00429  0.00664
   0.42451  0.58902  0.10621  1.20016  0.003331  0.002185  0.003450    1.5244    1.7101  0.00315  0.00400  0.00646
   0.45869  0.55570  0.11382  1.22307  0.003049  0.002004  0.003670    1.5212    1.7118  0.00300  0.00373  0.00628
   0.49063  0.52452  0.12073  1.24570  0.002795  0.001841  0.003898    1.5181    1.7135  0.00286  0.00348  0.00610
   0.52043  0.49538  0.12695  1.26814  0.002563  0.001692  0.004139    1.5146    1.7154  0.00272  0.00325  0.00592
   0.54818  0.46819  0.13253  1.29042  0.002351  0.001557  0.004398    1.5103    1.7177  0.00259  0.00303  0.00575
   0.57399  0.44287  0.13750  1.31252  0.002156  0.001433  0.004679    1.5048    1.7204  0.00247  0.00283  0.00557
   0.59794  0.41931  0.14189  1.33439  0.001978  0.001320  0.004985    1.4978    1.7238  0.00235  0.00264  0.00541
   0.62015  0.39744  0.14573  1.35593  0.001814  0.001218  0.005322    1.4892    1.7278  0.00224  0.00246  0.00525
   0.64070  0.37716  0.14907  1.37700  0.001663  0.001125  0.005690    1.4788    1.7325  0.00213  0.00229  0.00509
   0.65970  0.35838  0.15193  1.39740  0.001526  0.001040  0.006091    1.4668    1.7380  0.00203  0.00213  0.00493
   0.67724  0.34101  0.15435  1.41688  0.001402  0.000964  0.006524    1.4533    1.7442  0.00194  0.00199  0.00478
   0.69343  0.32495  0.15637  1.43511  0.001290  0.000897  0.006984    1.4386    1.7509  0.00185  0.00185  0.00464
   0.70835  0.31012  0.15801  1.45171  0.001191  0.000837  0.007461    1.4233    1.7580  0.00176  0.00173  0.00450
   0.72210  0.29642  0.15931  1.46626  0.001104  0.000784  0.007941    1.4077    1.7652  0.00169  0.00162  0.00436
   0.73479  0.28377  0.16030  1.47825  0.001029  0.000739  0.008406    1.3927    1.7724  0.00162  0.00152  0.00423
   0.74651  0.27208  0.16102  1.48719  0.000967  0.000701  0.008831    1.3788    1.7791  0.00155  0.00144  0.00410
   0.75736  0.26124  0.16151  1.49263  0.000917  0.000671  0.009190    1.3668    1.7850  0.00149  0.00137  0.00398
   0.76743  0.25118  0.16179  1.49421  0.000879  0.000648  0.009454    1.3573    1.7897  0.00145  0.00131  0.00387
   0.77681  0.24180  0.16190  1.49176  0.000853  0.000631  0.009599    1.3513    1.7929  0.00140  0.00127  0.00376
   0.78560  0.23300  0.16187  1.48544  0.000838  0.000621  0.009610    1.3492    1.7941  0.00137  0.00124  0.00365
   0.79389  0.22471  0.16174  1.47577  0.000833  0.000616  0.009485    1.3517    1.7932  0.00134  0.00123  0.00355
   0.80178  0.21683  0.16155  1.46373  0.000837  0.000616  0.009239    1.3591    1.7900  0.00132  0.00123  0.00346
   0.80935  0.20926  0.16132  1.45075  0.000848  0.000619  0.008907    1.3713    1.7847  0.00130  0.00123  0.00337
   0.81670  0.20192  0.16108  1.43867  0.000861  0.000621  0.008537    1.3874    1.7778  0.00128  0.00124  0.00329
   0.82391  0.19471  0.16089  1.42970  0.000871  0.000619  0.008193    1.4061    1.7701  0.00127  0.00124  0.00320
   0.83107  0.18755  0.16075  1.42629  0.000869  0.000610  0.007947    1.4245    1.7628  0.00124  0.00124  0.00312
   0.83828  0.18034  0.16072  1.43312  0.000842  0.000586  0.007949    1.4365    1.7587  0.00120  0.00121  0.00303
   0.84557  0.17305  0.16079  1.45016  0.000791  0.000549  0.008208    1.4415    1.7578  0.00115  0.00115  0.00294
   0.85292  0.16570  0.16093  1.47321  0.000731  0.000506  0.008587    1.4458    1.7574  0.00110  0.00108  0.00284
   0.86032  0.15830  0.16110  1.50063  0.000670  0.000460  0.008983    1.4553    1.7554  0.00104  0.00101  0.00273
   0.86776  0.15087  0.16127  1.53096  0.000615  0.000415  0.009214    1.4802    1.7480  0.00097  0.00094  0.00261
   0.87520  0.14342  0.16141  1.56278  0.000576  0.000373  0.008873    1.5449    1.7276  0.00091  0.00090  0.00246
   0.88265  0.13598  0.16148  1.59558  0.000576  0.000334  0.007093    1.7227    1.6773  0.00085  0.00092  0.00228
   0.89007  0.12856  0.16145  1.64057  0.000668  0.000293  0.003055    2.2831    1.5754  0.00079  0.00110  0.00204
   0.89745  0.12118  0.16129  1.76175  0.000927  0.000197 -0.000422    4.7052    1.5247  0.00061  0.00163  0.00164
   0.90478  0.11385  0.16096  1.82939  0.000997  0.000148 -0.000600    6.7260    1.5406  0.00050  0.00182  0.00140
   0.91206  0.10660  0.16043  1.83919  0.000854  0.000142 -0.000656    5.9978    1.5348  0.00048  0.00157  0.00136
   0.91926  0.09944  0.15966  1.85239  0.000658  0.000136 -0.000674    4.8466    1.5288  0.00047  0.00122  0.00132
   0.92638  0.09239  0.15863  1.87289  0.000482  0.000127  0.000060    3.7930    1.5288  0.00045  0.00090  0.00128
   0.93344  0.08546  0.15729  1.90270  0.000363  0.000116  0.001970    3.1388    1.5410  0.00042  0.00069  0.00123
   0.94042  0.07868  0.15562  1.93341  0.000293  0.000104  0.004147    2.8118    1.5577  0.00039  0.00057  0.00117
   0.94735  0.07206  0.15358  1.95533  0.000247  0.000094  0.006239    2.6289    1.5720  0.00036  0.00048  0.00111
   0.95424  0.06561  0.15114  1.96420  0.000215  0.000086  0.008219    2.5108    1.5837  0.00033  0.00042  0.00103
   0.96112  0.05936  0.14826  1.95716  0.000192  0.000079  0.010047    2.4272    1.5933  0.00030  0.00038  0.00094
   0.96803  0.05333  0.14491  1.93164  0.000174  0.000073  0.011635    2.3652    1.6012  0.00027  0.00034  0.00085
   0.97499  0.04753  0.14105  1.88573  0.000160  0.000069  0.012870    2.3185    1.6076  0.00025  0.00030  0.00075
   0.98207  0.04197  0.13667  1.81857  0.000151  0.000066  0.013647    2.2833    1.6127  0.00022  0.00027  0.00064
   0.98932  0.03668  0.13170  1.73065  0.000144  0.000064  0.013903    2.2573    1.6167  0.00019  0.00025  0.00054
   0.99681  0.03167  0.12614  1.62386  0.000140  0.000063  0.013637    2.2387    1.6196  0.00017  0.00023  0.00043
   1.00460  0.02697  0.11994  1.50121  0.000139  0.000062  0.012906    2.2262    1.6216  0.00014  0.00021  0.00034
   1.01275  0.02258  0.11306  1.36632  0.000139  0.000063  0.011819    2.2184    1.6229  0.00012  0.00019  0.00026
   1.02135  0.01852  0.10548  1.22289  0.000140  0.000063  0.010488    2.2151    1.6234  0.00009  0.00017  0.00019
   1.03045  0.01482  0.09717  1.07409  0.000143  0.000065  0.009060    2.2134    1.6237  0.00007  0.00015  0.00013
   1.04013  0.01149  0.08808  0.92243  0.000146  0.000066  0.007566    2.2172    1.6231  0.00006  0.00014  0.00008
   1.05046  0.00855  0.07818  0.76916  0.000150  0.000068  0.006174    2.2164    1.6232  0.00004  0.00012  0.00005
   1.06149  0.00601  0.06745  0.61476  0.000154  0.000069  0.004762    2.2269    1.6215  0.00003  0.00009  0.00003
   1.07329  0.00389  0.05584  0.45783  0.000156  0.000070  0.003524    2.2214    1.6224  0.00001  0.00007  0.00001
   1.08592  0.00221  0.04332  0.29577  0.000158  0.000070  0.002216    2.2368    1.6199  0.00001  0.00005  0.00000
   1.09943  0.00100  0.02987  0.12141  0.000152  0.000068  0.000950    2.2295    1.6211  0.00000  0.00002  0.00000
   1.11388  0.00025  0.01544 -0.07477  0.000152  0.000068  0.000585    2.2295    1.6211  0.00000 -0.00001 -0.00000
   1.12931  0.00000  0.00000 -0.36309  0.000119  0.000054  0.003704    2.2091    1.6244  0.00001 -0.00004 -0.00000
   1.13454  0.00021 -0.00522 -0.52539  0.000099  0.000045  0.006700    2.1666    1.6316  0.00001 -0.00005 -0.00001
   1.13938  0.00082 -0.01002 -0.68813  0.000099  0.000044  0.008119    2.2491    1.6180  0.00002 -0.00007 -0.00002
   1.14389  0.00183 -0.01442 -0.85763  0.000091  0.000042  0.011723    2.1814    1.6291  0.00003 -0.00008 -0.00004
   1.14814  0.00323 -0.01843 -1.03056  0.000090  0.000040  0.013678    2.2264    1.6216  0.00004 -0.00009 -0.00007
   1.15217  0.00500 -0.02206 -1.19512  0.000088  0.000040  0.016305    2.2171    1.6231  0.00006 -0.00011 -0.00011
   1.15606  0.00713 -0.02531 -1.34350  0.000091  0.000040  0.017331    2.2485    1.6180  0.00007 -0.00012 -0.00016
   1.15988  0.00961 -0.02821 -1.46538  0.000095  0.000042  0.017502    2.2753    1.6139  0.00009 -0.00014 -0.00021
   1.16368  0.01244 -0.03075 -1.55600  0.000104  0.000045  0.016338    2.3200    1.6074  0.00011 -0.00016 -0.00027
   1.16753  0.01559 -0.03296 -1.61431  0.000117  0.000049  0.014313    2.3765    1.5997  0.00013 -0.00019 -0.00033
   1.17149  0.01907 -0.03485 -1.64364  0.000134  0.000055  0.011785    2.4499    1.5906  0.00015 -0.00022 -0.00039
   1.17558  0.02285 -0.03642 -1.64939  0.000157  0.000062  0.009125    2.5449    1.5801  0.00017 -0.00026 -0.00044
   1.17985  0.02693 -0.03769 -1.63743  0.000187  0.000070  0.006555    2.6726    1.5682  0.00019 -0.00031 -0.00048
   1.18433  0.03129 -0.03867 -1.61309  0.000228  0.000080  0.004158    2.8588    1.5547  0.00021 -0.00037 -0.00052
   1.18902  0.03593 -0.03936 -1.58165  0.000288  0.000091  0.001950    3.1684    1.5399  0.00023 -0.00046 -0.00055
   1.19394  0.04084 -0.03979 -1.55087  0.000383  0.000102  0.000149    3.7422    1.5291  0.00025 -0.00059 -0.00058
   1.19910  0.04599 -0.03996 -1.52782  0.000523  0.000112 -0.000635    4.6697    1.5283  0.00026 -0.00080 -0.00061
   1.20450  0.05139 -0.03989 -1.51218  0.000692  0.000120 -0.000650    5.7761    1.5333  0.00027 -0.00105 -0.00064
   1.21013  0.05702 -0.03957 -1.50119  0.000847  0.000126 -0.000578    6.7022    1.5404  0.00028 -0.00127 -0.00066
   1.21601  0.06286 -0.03904 -1.49120  0.000916  0.000133 -0.000540    6.8732    1.5419  0.00030 -0.00137 -0.00068
   1.22211  0.06892 -0.03829 -1.36908  0.000684  0.000236  0.001113    2.8993    1.5357  0.00044 -0.00094 -0.00093
   1.22843  0.07518 -0.03734 -1.31452  0.000539  0.000287  0.004199    1.8812    1.6529  0.00050 -0.00071 -0.00108
   1.23498  0.08162 -0.03620 -1.28614  0.000511  0.000321  0.006275    1.5901    1.7240  0.00053 -0.00066 -0.00118
   1.24172  0.08823 -0.03488 -1.25944  0.000538  0.000360  0.006845    1.4921    1.7531  0.00057 -0.00068 -0.00126
   1.24866  0.09501 -0.03340 -1.23213  0.000590  0.000404  0.006700    1.4592    1.7622  0.00061 -0.00073 -0.00133
   1.25579  0.10195 -0.03175 -1.20469  0.000658  0.000453  0.006287    1.4519    1.7625  0.00066 -0.00079 -0.00140
   1.26309  0.10902 -0.02996 -1.17757  0.000738  0.000507  0.005791    1.4564    1.7585  0.00070 -0.00087 -0.00145
   1.27055  0.11623 -0.02804 -1.15101  0.000828  0.000564  0.005287    1.4671    1.7524  0.00075 -0.00095 -0.00151
   1.27816  0.12356 -0.02600 -1.12508  0.000927  0.000626  0.004803    1.4816    1.7451  0.00079 -0.00104 -0.00156
   1.28590  0.13100 -0.02384 -1.09979  0.001038  0.000693  0.004350    1.4988    1.7370  0.00084 -0.00114 -0.00160
   1.29377  0.13854 -0.02159 -1.07510  0.001160  0.000764  0.003927    1.5183    1.7284  0.00088 -0.00125 -0.00164
   1.30174  0.14616 -0.01924 -1.05095  0.001296  0.000842  0.003535    1.5401    1.7192  0.00093 -0.00136 -0.00168
   1.30982  0.15386 -0.01682 -1.02726  0.001448  0.000926  0.003169    1.5645    1.7094  0.00098 -0.00149 -0.00172
   1.31797  0.16162 -0.01433 -1.00393  0.001620  0.001018  0.002825    1.5921    1.6989  0.00103 -0.00163 -0.00175
   1.32619  0.16944 -0.01179 -0.98085  0.001816  0.001118  0.002500    1.6239    1.6874  0.00108 -0.00178 -0.00178
   1.33447  0.17731 -0.00920 -0.95773  0.002045  0.001230  0.002186    1.6621    1.6746  0.00113 -0.00196 -0.00181
   1.34284  0.18525 -0.00659 -0.93522  0.002308  0.001353  0.001895    1.7054    1.6609  0.00118 -0.00216 -0.00184
   1.35135  0.19335 -0.00395 -0.91439  0.002591  0.001481  0.001646    1.7495    1.6478  0.00124 -0.00237 -0.00187
   1.36009  0.20168 -0.00132 -0.89563  0.002883  0.001610  0.001444    1.7909    1.6362  0.00129 -0.00258 -0.00189
   1.36912  0.21032  0.00130 -0.87904  0.003172  0.001737  0.001286    1.8263    1.6268  0.00134 -0.00279 -0.00192
   1.37851  0.21935  0.00389 -0.86452  0.003444  0.001859  0.001171    1.8527    1.6199  0.00139 -0.00298 -0.00195
   1.38834  0.22885  0.00644 -0.85194  0.003689  0.001975  0.001093    1.8679    1.6159  0.00143 -0.00314 -0.00197
   1.39868  0.23888  0.00893 -0.84112  0.003897  0.002083  0.001047    1.8706    1.6147  0.00147 -0.00328 -0.00200
   1.40962  0.24954  0.01135 -0.83193  0.004059  0.002182  0.001031    1.8605    1.6165  0.00151 -0.00338 -0.00203
   1.42121  0.26090  0.01368 -0.82428  0.004173  0.002270  0.001042    1.8386    1.6212  0.00154 -0.00344 -0.00206
   1.43355  0.27304  0.01590 -0.81811  0.004237  0.002346  0.001077    1.8064    1.6285  0.00157 -0.00347 -0.00209
   1.44671  0.28603  0.01801 -0.81338  0.004255  0.002409  0.001133    1.7665    1.6382  0.00159 -0.00346 -0.00212
   1.46078  0.29996  0.01999 -0.81007  0.004232  0.002459  0.001209    1.7213    1.6501  0.00161 -0.00343 -0.00216
   1.47583  0.31490  0.02182 -0.80814  0.004175  0.002495  0.001302    1.6736    1.6635  0.00163 -0.00337 -0.00219
   1.49194  0.33092  0.02349 -0.80753  0.004094  0.002518  0.001408    1.6255    1.6781  0.00164 -0.00331 -0.00223
   1.50920  0.34811  0.02498 -0.80814  0.003996  0.002531  0.001525    1.5790    1.6932  0.00165 -0.00323 -0.00226
   1.52768  0.36655  0.02628 -0.80985  0.003891  0.002534  0.001649    1.5355    1.7083  0.00166 -0.00315 -0.00230
   1.54747  0.38631  0.02737 -0.81251  0.003785  0.002531  0.001776    1.4957    1.7230  0.00167 -0.00308 -0.00234
   1.56865  0.40747  0.02824 -0.81599  0.003684  0.002523  0.001904    1.4601    1.7368  0.00168 -0.00301 -0.00238
   1.59129  0.43011  0.02888 -0.82014  0.003590  0.002512  0.002028    1.4290    1.7495  0.00169 -0.00294 -0.00242
   1.61549  0.45430  0.02926 -0.82484  0.003506  0.002500  0.002147    1.4022    1.7609  0.00170 -0.00289 -0.00247
   1.64132  0.48013  0.02938 -0.82999  0.003434  0.002489  0.002259    1.3796    1.7709  0.00171 -0.00285 -0.00252
   1.66886  0.50767  0.02922 -0.83551  0.003375  0.002480  0.002362    1.3609    1.7794  0.00173 -0.00282 -0.00257
   1.69819  0.53700  0.02876 -0.84134  0.003327  0.002472  0.002455    1.3458    1.7864  0.00175 -0.00280 -0.00263
   1.72940  0.56819  0.02799 -0.84741  0.003292  0.002468  0.002538    1.3340    1.7920  0.00177 -0.00279 -0.00269
   1.76256  0.60134  0.02690 -0.85372  0.003267  0.002466  0.002612    1.3250    1.7962  0.00180 -0.00279 -0.00276
   1.79775  0.63650  0.02547 -0.86023  0.003253  0.002467  0.002675    1.3186    1.7993  0.00183 -0.00280 -0.00283
   1.83506  0.67377  0.02368 -0.86694  0.003248  0.002471  0.002729    1.3144    1.8013  0.00186 -0.00282 -0.00290
   1.87456  0.71321  0.02152 -0.87387  0.003251  0.002477  0.002776    1.3122    1.8023  0.00189 -0.00284 -0.00298
   1.91634  0.75491  0.01898 -0.88104  0.003260  0.002486  0.002817    1.3114    1.8026  0.00193 -0.00287 -0.00306
   1.96048  0.79895  0.01604 -0.88850  0.003275  0.002496  0.002852    1.3120    1.8023  0.00197 -0.00291 -0.00316
   2.00705  0.84540  0.01269 -0.89617  0.003296  0.002509  0.002883    1.3136    1.8014  0.00202 -0.00295 -0.00325
   2.05613  0.89434  0.00891 -0.90473  0.003312  0.002518  0.002919    1.3153    1.8004  0.00206 -0.00300 -0.00336
   2.10781  0.94585  0.00468 -0.91181  0.003357  0.002544  0.002929    1.3197    1.7981  0.00211 -0.00306 -0.00347
   2.16217  1.00000  0.00000 -0.89632  0.003767  0.002788  0.002630    1.3508    1.7827  0.00224 -0.00338 -0.00358
   2.16217  1.00010 -0.00002  0.89632  0.018975  0.009992  0.000000    1.8989
   2.21871  1.05591 -0.00905  0.93193  0.013811  0.008634  0.000000    1.5995
   2.27451  1.11125 -0.01619  0.94666  0.012096  0.008168  0.000000    1.4809
   2.32957  1.16597 -0.02237  0.95621  0.011071  0.007891  0.000000    1.4030
   2.38391  1.22003 -0.02787  0.96281  0.010380  0.007710  0.000000    1.3464
   2.43753  1.27342 -0.03285  0.96770  0.009877  0.007581  0.000000    1.3029
   2.49045  1.32614 -0.03740  0.97149  0.009492  0.007484  0.000000    1.2683
   2.54267  1.37820 -0.04160  0.97453  0.009187  0.007408  0.000000    1.2401
   2.59421  1.42958 -0.04550  0.97703  0.008940  0.007348  0.000000    1.2167
   2.64507  1.48031 -0.04913  0.97911  0.008735  0.007298  0.000000    1.1970
   2.69525  1.53038 -0.05254  0.98087  0.008564  0.007256  0.000000    1.1803
   2.74478  1.57980 -0.05574  0.98238  0.008419  0.007221  0.000000    1.1660
   2.79365  1.62858 -0.05876  0.98369  0.008295  0.007190  0.000000    1.1536
   2.84188  1.67673 -0.06162  0.98483  0.008187  0.007164  0.000000    1.1428
   2.88948  1.72425 -0.06433  0.98583  0.008094  0.007141  0.000000    1.1334
   2.93645  1.77115 -0.06690  0.98672  0.008012  0.007121  0.000000    1.1251
   2.98280  1.81744 -0.06935  0.98750  0.007940  0.007104  0.000000    1.1177
   3.02855  1.86312 -0.07169  0.98820  0.007876  0.007088  0.000000    1.1111
   3.07369  1.90821 -0.07392  0.98882  0.007819  0.007074  0.000000    1.1053
   3.11823  1.95270 -0.07606  0.98937  0.007768  0.007062  0.000000    1.1000
   3.16219  1.99661 -0.07811  0.99047  0.007707  0.007038  0.000000    1.0951
